Column 1: Rest Wavelength (microns)
Column 2: Luminosity (W/Hz)
Column 3: DLnu (W/Hz)

   2.000   6.241E+23   1.910E+23
   2.100   7.263E+23   2.415E+23
   2.117   7.416E+23   2.470E+23
   2.200   8.043E+23   2.576E+23
   2.300   8.710E+23   2.574E+23
   2.399   9.425E+23   2.544E+23
   2.400   9.435E+23   2.544E+23
   2.500   1.035E+24   2.448E+23
   2.600   1.134E+24   2.335E+23
   2.647   1.181E+24   2.292E+23
   2.700   1.238E+24   2.258E+23
   2.800   1.348E+24   2.213E+23
   2.900   1.457E+24   2.176E+23
   2.963   1.515E+24   2.183E+23
   3.000   1.539E+24   2.210E+23
   3.058   1.554E+24   2.277E+23
   3.100   1.553E+24   2.330E+23
   3.156   1.572E+24   2.406E+23
   3.200   1.623E+24   2.478E+23
   3.257   1.713E+24   2.600E+23
   3.300   1.776E+24   2.698E+23
   3.350   1.851E+24   2.742E+23
   3.400   1.945E+24   2.648E+23
   3.452   2.067E+24   2.452E+23
   3.500   2.198E+24   2.243E+23
   3.550   2.332E+24   2.031E+23
   3.600   2.439E+24   1.861E+23
   3.648   2.502E+24   1.801E+23
   3.700   2.522E+24   1.917E+23
   3.748   2.529E+24   2.171E+23
   3.800   2.565E+24   2.506E+23
   3.850   2.636E+24   2.639E+23
   3.900   2.735E+24   2.451E+23
   3.950   2.836E+24   2.172E+23
   4.000   2.910E+24   2.061E+23
   4.048   2.955E+24   2.046E+23
   4.148   3.012E+24   1.974E+23
   4.254   3.126E+24   2.128E+23
   4.350   3.277E+24   2.125E+23
   4.449   3.429E+24   2.177E+23
   4.555   3.448E+24   2.672E+23
   4.651   3.550E+24   3.270E+23
   4.749   3.645E+24   2.738E+23
   4.847   3.805E+24   2.854E+23
   4.949   3.854E+24   2.651E+23
   5.047   4.064E+24   1.950E+23
   5.148   4.249E+24   2.290E+23
   5.249   4.470E+24   2.447E+23
   5.349   4.525E+24   1.997E+23
   5.448   4.565E+24   2.230E+23
   5.550   4.700E+24   2.543E+23
   5.649   4.894E+24   2.151E+23
   5.752   5.093E+24   2.453E+23
   5.848   5.136E+24   2.669E+23
   5.949   5.170E+24   2.903E+23
   6.054   5.366E+24   2.592E+23
   6.153   5.445E+24   3.059E+23
   6.253   5.766E+24   3.577E+23
   6.349   5.818E+24   3.272E+23
   6.449   6.036E+24   3.857E+23
   6.547   6.360E+24   3.668E+23
   6.652   6.335E+24   2.771E+23
   6.747   6.226E+24   2.534E+23
   6.848   6.469E+24   2.567E+23
   6.946   6.625E+24   2.413E+23
   7.049   6.851E+24   2.193E+23
   7.148   7.210E+24   2.373E+23
   7.252   7.168E+24   2.030E+23
   7.351   7.254E+24   2.067E+23
   7.454   7.633E+24   2.188E+23
   7.548   8.052E+24   3.038E+23
   7.654   8.221E+24   3.948E+23
   7.753   8.254E+24   3.606E+23
   7.848   8.245E+24   3.417E+23
   7.946   8.171E+24   2.877E+23
   8.047   8.016E+24   2.601E+23
   8.151   8.065E+24   2.933E+23
   8.248   8.274E+24   2.987E+23
   8.349   8.123E+24   3.387E+23
   8.445   7.939E+24   3.826E+23
   8.548   8.010E+24   3.745E+23
   8.651   7.881E+24   4.463E+23
   8.752   7.489E+24   4.000E+23
   8.849   7.398E+24   3.891E+23
   8.951   7.226E+24   5.266E+23
   9.045   7.085E+24   6.103E+23
   9.153   6.984E+24   7.539E+23
   9.250   7.175E+24   7.088E+23
   9.350   7.453E+24   7.247E+23
   9.450   7.242E+24   6.961E+23
   9.548   7.039E+24   8.221E+23
   9.650   7.375E+24   7.990E+23
   9.750   7.626E+24   8.740E+23
   9.846   7.817E+24   9.010E+23
   9.947   7.641E+24   7.069E+23
  10.052   7.696E+24   5.985E+23
  10.148   8.154E+24   6.056E+23
  10.253   8.382E+24   7.281E+23
  10.350   8.739E+24   9.103E+23
  10.449   8.423E+24   7.620E+23
  10.551   8.246E+24   9.317E+23
  10.653   8.590E+24   1.158E+24
  10.750   9.251E+24   9.803E+23
  10.848   9.315E+24   7.644E+23
  10.951   9.706E+24   5.911E+23
  11.051   1.005E+25   5.734E+23
  11.150   1.022E+25   5.600E+23
  11.249   1.053E+25   7.200E+23
  11.351   1.105E+25   8.415E+23
  11.446   1.078E+25   8.287E+23
  11.548   1.146E+25   5.694E+23
  11.644   1.183E+25   5.756E+23
  11.754   1.250E+25   6.948E+23
  11.852   1.351E+25   9.308E+23
  11.946   1.366E+25   9.923E+23
  12.054   1.264E+25   1.020E+24
  12.152   1.281E+25   9.745E+23
  12.253   1.313E+25   8.545E+23
  12.345   1.300E+25   9.523E+23
  12.451   1.325E+25   1.066E+24
  12.552   1.331E+25   1.137E+24
  12.647   1.378E+25   1.107E+24
  12.751   1.362E+25   1.439E+24
  12.845   1.338E+25   1.558E+24
  12.951   1.486E+25   1.901E+24
  13.051   1.413E+25   1.731E+24
  13.148   1.413E+25   1.570E+24
  13.253   1.397E+25   1.698E+24
  13.348   1.512E+25   1.950E+24
  13.444   1.553E+25   2.263E+24
  13.541   1.508E+25   1.389E+24
  13.653   1.392E+25   1.536E+24
  13.751   1.376E+25   1.614E+24
  13.851   1.451E+25   1.478E+24
  13.948   1.587E+25   2.254E+24
  14.050   1.527E+25   2.197E+24
  14.157   1.457E+25   1.767E+24
  14.257   1.473E+25   1.702E+24
  14.351   1.487E+25   1.967E+24
  14.450   1.554E+25   2.314E+24
  14.547   1.545E+25   2.214E+24
  14.656   1.592E+25   1.739E+24
  14.753   1.604E+25   1.397E+24
  14.847   1.561E+25   1.807E+24
  14.949   1.573E+25   1.703E+24
  15.049   1.534E+25   2.172E+24
  15.146   1.611E+25   2.362E+24
  15.244   1.704E+25   2.409E+24
  15.347   1.655E+25   2.491E+24
  15.458   1.616E+25   1.918E+24
  15.545   1.640E+25   1.791E+24
  15.645   1.682E+25   2.610E+24
  15.751   1.714E+25   2.014E+24
  15.856   1.942E+25   1.511E+24
  15.947   1.990E+25   2.031E+24
  16.049   1.769E+25   2.424E+24
  16.155   1.581E+25   2.333E+24
  16.250   1.578E+25   2.685E+24
  16.348   1.705E+25   2.440E+24
  16.446   1.652E+25   2.733E+24
  16.554   1.602E+25   3.229E+24
  16.600   1.812E+25   4.891E+24
  16.700   1.834E+25   4.933E+24
  16.800   1.856E+25   5.014E+24
  16.900   1.878E+25   5.096E+24
  17.000   1.900E+25   5.177E+24
  17.100   1.922E+25   5.259E+24
  17.200   1.944E+25   5.340E+24
  17.300   1.967E+25   5.422E+24
  17.400   1.989E+25   5.503E+24
  17.500   2.012E+25   5.584E+24
  17.600   2.035E+25   5.666E+24
  17.700   2.058E+25   5.747E+24
  17.800   2.081E+25   5.829E+24
  17.900   2.104E+25   5.910E+24
  18.000   2.127E+25   5.992E+24
  18.100   2.151E+25   6.073E+24
  18.200   2.174E+25   6.155E+24
  18.300   2.198E+25   6.236E+24
  18.400   2.222E+25   6.318E+24
  18.500   2.246E+25   6.399E+24
  18.600   2.270E+25   6.481E+24
  18.700   2.294E+25   6.562E+24
  18.800   2.318E+25   6.644E+24
  18.900   2.343E+25   6.725E+24
  19.000   2.367E+25   6.807E+24
  19.100   2.392E+25   6.888E+24
  19.200   2.417E+25   6.969E+24
  19.300   2.442E+25   7.051E+24
  19.400   2.467E+25   7.132E+24
  19.500   2.492E+25   7.214E+24
  19.600   2.518E+25   7.295E+24
  19.700   2.543E+25   7.377E+24
  19.800   2.569E+25   7.458E+24
  19.900   2.594E+25   7.540E+24
  20.000   2.620E+25   7.621E+24
  20.100   2.646E+25   7.703E+24
  20.200   2.672E+25   7.784E+24
  20.300   2.699E+25   7.866E+24
  20.400   2.725E+25   7.947E+24
  20.500   2.752E+25   8.029E+24
  20.600   2.778E+25   8.110E+24
  20.700   2.805E+25   8.192E+24
  20.800   2.832E+25   8.273E+24
  20.900   2.859E+25   8.355E+24
  21.000   2.886E+25   8.436E+24
  21.100   2.913E+25   8.517E+24
  21.200   2.941E+25   8.599E+24
  21.300   2.968E+25   8.680E+24
  21.400   2.996E+25   8.762E+24
  21.500   3.023E+25   8.843E+24
  21.600   3.051E+25   8.925E+24
  21.700   3.079E+25   9.006E+24
  21.800   3.108E+25   9.088E+24
  21.900   3.136E+25   9.169E+24
  22.000   3.164E+25   9.251E+24
  22.100   3.193E+25   9.332E+24
  22.200   3.221E+25   9.414E+24
  22.300   3.250E+25   9.495E+24
  22.400   3.279E+25   9.577E+24
  22.500   3.308E+25   9.658E+24
  22.600   3.337E+25   9.740E+24
  22.700   3.366E+25   9.821E+24
  22.800   3.396E+25   9.903E+24
  22.900   3.425E+25   9.984E+24
  23.000   3.455E+25   1.007E+25
  23.100   3.493E+25   1.013E+25
  23.200   3.531E+25   1.020E+25
  23.300   3.569E+25   1.026E+25
  23.400   3.606E+25   1.033E+25
  23.500   3.644E+25   1.039E+25
  23.600   3.681E+25   1.045E+25
  23.700   3.718E+25   1.051E+25
  23.800   3.754E+25   1.057E+25
  23.900   3.790E+25   1.062E+25
  24.000   3.827E+25   1.068E+25
  24.100   3.862E+25   1.073E+25
  24.200   3.898E+25   1.079E+25
  24.300   3.933E+25   1.084E+25
  24.400   3.968E+25   1.089E+25
  24.500   4.003E+25   1.094E+25
  24.600   4.037E+25   1.099E+25
  24.700   4.072E+25   1.104E+25
  24.800   4.105E+25   1.109E+25
  24.900   4.139E+25   1.113E+25
  25.000   4.172E+25   1.118E+25
  25.100   4.205E+25   1.122E+25
  25.200   4.238E+25   1.126E+25
  25.300   4.271E+25   1.130E+25
  25.400   4.303E+25   1.134E+25
  25.500   4.334E+25   1.138E+25
  25.600   4.366E+25   1.142E+25
  25.700   4.397E+25   1.146E+25
  25.800   4.428E+25   1.149E+25
  25.900   4.458E+25   1.153E+25
  26.000   4.489E+25   1.156E+25
  26.100   4.518E+25   1.159E+25
  26.200   4.548E+25   1.163E+25
  26.300   4.577E+25   1.166E+25
  26.400   4.606E+25   1.169E+25
  26.500   4.635E+25   1.171E+25
  26.600   4.663E+25   1.174E+25
  26.700   4.691E+25   1.177E+25
  26.800   4.718E+25   1.179E+25
  26.900   4.746E+25   1.182E+25
  27.000   4.773E+25   1.184E+25
  27.100   4.799E+25   1.186E+25
  27.200   4.825E+25   1.188E+25
  27.300   4.851E+25   1.190E+25
  27.400   4.877E+25   1.192E+25
  27.500   4.902E+25   1.194E+25
  27.600   4.927E+25   1.196E+25
  27.700   4.951E+25   1.198E+25
  27.800   4.976E+25   1.199E+25
  27.900   5.000E+25   1.201E+25
  28.000   5.023E+25   1.202E+25
  28.100   5.046E+25   1.203E+25
  28.200   5.069E+25   1.205E+25
  28.300   5.092E+25   1.206E+25
  28.400   5.114E+25   1.207E+25
  28.500   5.136E+25   1.208E+25
  28.600   5.157E+25   1.209E+25
  28.700   5.178E+25   1.210E+25
  28.800   5.199E+25   1.210E+25
  28.900   5.220E+25   1.211E+25
  29.000   5.240E+25   1.212E+25
  29.100   5.259E+25   1.212E+25
  29.200   5.279E+25   1.212E+25
  29.300   5.298E+25   1.213E+25
  29.400   5.317E+25   1.213E+25
  29.500   5.335E+25   1.213E+25
  29.600   5.354E+25   1.213E+25
  29.700   5.371E+25   1.213E+25
  29.800   5.389E+25   1.213E+25
  29.900   5.406E+25   1.213E+25
  30.000   5.423E+25   1.213E+25
  30.100   5.440E+25   1.213E+25
  30.200   5.456E+25   1.213E+25
  30.300   5.472E+25   1.212E+25
  30.400   5.487E+25   1.212E+25
  30.500   5.503E+25   1.211E+25
  30.600   5.518E+25   1.211E+25
  30.700   5.532E+25   1.210E+25
  30.800   5.547E+25   1.210E+25
  30.900   5.561E+25   1.209E+25
  31.000   5.574E+25   1.208E+25
  31.100   5.588E+25   1.207E+25
  31.200   5.601E+25   1.206E+25
  31.300   5.614E+25   1.205E+25
  31.400   5.626E+25   1.204E+25
  31.500   5.639E+25   1.203E+25
  31.600   5.650E+25   1.202E+25
  31.700   5.662E+25   1.201E+25
  31.800   5.673E+25   1.200E+25
  31.900   5.685E+25   1.199E+25
  32.000   5.695E+25   1.197E+25
  32.100   5.706E+25   1.196E+25
  32.200   5.716E+25   1.195E+25
  32.300   5.726E+25   1.193E+25
  32.400   5.736E+25   1.192E+25
  32.500   5.745E+25   1.190E+25
  32.600   5.754E+25   1.189E+25
  32.700   5.763E+25   1.187E+25
  32.800   5.772E+25   1.185E+25
  32.900   5.780E+25   1.184E+25
  33.000   5.788E+25   1.182E+25
  33.100   5.796E+25   1.180E+25
  33.200   5.803E+25   1.178E+25
  33.300   5.811E+25   1.176E+25
  33.400   5.818E+25   1.175E+25
  33.500   5.824E+25   1.173E+25
  33.600   5.831E+25   1.171E+25
  33.700   5.837E+25   1.169E+25
  33.800   5.843E+25   1.167E+25
  33.900   5.849E+25   1.165E+25
  34.000   5.855E+25   1.162E+25
  34.100   5.860E+25   1.160E+25
  34.200   5.865E+25   1.158E+25
  34.300   5.870E+25   1.156E+25
  34.400   5.875E+25   1.154E+25
  34.500   5.879E+25   1.152E+25
  34.600   5.883E+25   1.149E+25
  34.700   5.887E+25   1.147E+25
  34.800   5.891E+25   1.145E+25
  34.900   5.894E+25   1.142E+25
  35.000   5.898E+25   1.140E+25
  35.100   5.901E+25   1.138E+25
  35.200   5.904E+25   1.135E+25
  35.300   5.906E+25   1.133E+25
  35.400   5.909E+25   1.130E+25
  35.500   5.911E+25   1.128E+25
  35.600   5.913E+25   1.125E+25
  35.700   5.915E+25   1.123E+25
  35.800   5.917E+25   1.120E+25
  35.900   5.918E+25   1.118E+25
  36.000   5.919E+25   1.115E+25
  36.100   5.920E+25   1.112E+25
  36.200   5.921E+25   1.110E+25
  36.300   5.922E+25   1.107E+25
  36.400   5.923E+25   1.105E+25
  36.500   5.923E+25   1.102E+25
  36.600   5.923E+25   1.099E+25
  36.700   5.923E+25   1.097E+25
  36.800   5.923E+25   1.094E+25
  36.900   5.923E+25   1.091E+25
  37.000   5.922E+25   1.088E+25
  37.100   5.921E+25   1.086E+25
  37.200   5.921E+25   1.083E+25
  37.300   5.920E+25   1.080E+25
  37.400   5.918E+25   1.077E+25
  37.500   5.917E+25   1.075E+25
  37.600   5.916E+25   1.072E+25
  37.700   5.914E+25   1.069E+25
  37.800   5.912E+25   1.066E+25
  37.900   5.910E+25   1.063E+25
  38.000   5.908E+25   1.061E+25
  38.100   5.906E+25   1.058E+25
  38.200   5.904E+25   1.055E+25
  38.300   5.901E+25   1.052E+25
  38.400   5.899E+25   1.049E+25
  38.500   5.896E+25   1.046E+25
  38.600   5.893E+25   1.044E+25
  38.700   5.890E+25   1.041E+25
  38.800   5.887E+25   1.038E+25
  38.900   5.884E+25   1.035E+25
  39.000   5.880E+25   1.032E+25
  39.100   5.877E+25   1.029E+25
  39.200   5.873E+25   1.027E+25
  39.300   5.870E+25   1.024E+25
  39.400   5.866E+25   1.021E+25
  39.500   5.862E+25   1.018E+25
  39.600   5.858E+25   1.015E+25
  39.700   5.853E+25   1.012E+25
  39.800   5.849E+25   1.009E+25
  39.900   5.845E+25   1.007E+25
  40.000   5.840E+25   1.004E+25
  40.100   5.836E+25   1.001E+25
  40.200   5.831E+25   9.980E+24
  40.300   5.826E+25   9.951E+24
  40.400   5.821E+25   9.923E+24
  40.500   5.816E+25   9.895E+24
  40.600   5.811E+25   9.866E+24
  40.700   5.806E+25   9.838E+24
  40.800   5.801E+25   9.810E+24
  40.900   5.796E+25   9.782E+24
  41.000   5.790E+25   9.754E+24
  41.100   5.785E+25   9.726E+24
  41.200   5.779E+25   9.698E+24
  41.300   5.773E+25   9.670E+24
  41.400   5.768E+25   9.642E+24
  41.500   5.762E+25   9.615E+24
  41.600   5.756E+25   9.587E+24
  41.700   5.750E+25   9.560E+24
  41.800   5.744E+25   9.532E+24
  41.900   5.738E+25   9.505E+24
  42.000   5.732E+25   9.478E+24
  42.100   5.725E+25   9.451E+24
  42.200   5.719E+25   9.424E+24
  42.300   5.713E+25   9.397E+24
  42.400   5.706E+25   9.370E+24
  42.500   5.700E+25   9.344E+24
  42.600   5.693E+25   9.317E+24
  42.700   5.687E+25   9.291E+24
  42.800   5.680E+25   9.264E+24
  42.900   5.674E+25   9.238E+24
  43.000   5.667E+25   9.212E+24
  43.100   5.660E+25   9.187E+24
  43.200   5.653E+25   9.161E+24
  43.300   5.646E+25   9.136E+24
  43.400   5.639E+25   9.110E+24
  43.500   5.633E+25   9.085E+24
  43.600   5.626E+25   9.060E+24
  43.700   5.618E+25   9.035E+24
  43.800   5.611E+25   9.011E+24
  43.900   5.604E+25   8.986E+24
  44.000   5.597E+25   8.962E+24
  44.100   5.590E+25   8.938E+24
  44.200   5.583E+25   8.914E+24
  44.300   5.576E+25   8.890E+24
  44.400   5.568E+25   8.867E+24
  44.500   5.561E+25   8.843E+24
  44.600   5.554E+25   8.820E+24
  44.700   5.546E+25   8.797E+24
  44.800   5.539E+25   8.775E+24
  44.900   5.531E+25   8.752E+24
  45.000   5.524E+25   8.730E+24
  45.100   5.517E+25   8.708E+24
  45.200   5.509E+25   8.686E+24
  45.300   5.502E+25   8.665E+24
  45.400   5.494E+25   8.643E+24
  45.500   5.487E+25   8.622E+24
  45.600   5.479E+25   8.602E+24
  45.700   5.472E+25   8.581E+24
  45.800   5.464E+25   8.561E+24
  45.900   5.456E+25   8.541E+24
  46.000   5.449E+25   8.521E+24
  46.100   5.441E+25   8.501E+24
  46.200   5.434E+25   8.482E+24
  46.300   5.426E+25   8.463E+24
  46.400   5.418E+25   8.445E+24
  46.500   5.411E+25   8.426E+24
  46.600   5.403E+25   8.408E+24
  46.700   5.396E+25   8.390E+24
  46.800   5.388E+25   8.373E+24
  46.900   5.380E+25   8.356E+24
  47.000   5.373E+25   8.339E+24
  47.100   5.365E+25   8.322E+24
  47.200   5.358E+25   8.306E+24
  47.300   5.350E+25   8.290E+24
  47.400   5.342E+25   8.274E+24
  47.500   5.335E+25   8.259E+24
  47.600   5.327E+25   8.244E+24
  47.700   5.320E+25   8.230E+24
  47.800   5.312E+25   8.215E+24
  47.900   5.304E+25   8.201E+24
  48.000   5.297E+25   8.188E+24
  48.100   5.289E+25   8.175E+24
  48.200   5.282E+25   8.162E+24
  48.300   5.274E+25   8.149E+24
  48.400   5.267E+25   8.137E+24
  48.500   5.259E+25   8.126E+24
  48.600   5.252E+25   8.114E+24
  48.700   5.244E+25   8.103E+24
  48.800   5.237E+25   8.093E+24
  48.900   5.229E+25   8.082E+24
  49.000   5.222E+25   8.072E+24
  49.100   5.215E+25   8.063E+24
  49.200   5.207E+25   8.054E+24
  49.300   5.200E+25   8.045E+24
  49.400   5.192E+25   8.037E+24
  49.500   5.185E+25   8.029E+24
  49.600   5.178E+25   8.022E+24
  49.700   5.171E+25   8.015E+24
  49.800   5.163E+25   8.008E+24
  49.900   5.156E+25   8.002E+24
  50.000   5.149E+25   7.997E+24
  50.100   5.142E+25   7.991E+24
  50.200   5.135E+25   7.986E+24
  50.300   5.127E+25   7.982E+24
  50.400   5.120E+25   7.978E+24
  50.500   5.113E+25   7.975E+24
  50.600   5.106E+25   7.972E+24
  50.700   5.099E+25   7.969E+24
  50.800   5.092E+25   7.967E+24
  50.900   5.085E+25   7.965E+24
  51.000   5.078E+25   7.964E+24
  51.100   5.072E+25   7.963E+24
  51.200   5.065E+25   7.963E+24
  51.300   5.058E+25   7.963E+24
  51.400   5.051E+25   7.964E+24
  51.500   5.044E+25   7.965E+24
  51.600   5.038E+25   7.966E+24
  51.700   5.031E+25   7.968E+24
  51.800   5.024E+25   7.971E+24
  51.900   5.018E+25   7.974E+24
  52.000   5.011E+25   7.977E+24
  52.100   5.005E+25   7.981E+24
  52.200   4.998E+25   7.986E+24
  52.300   4.992E+25   7.991E+24
  52.400   4.985E+25   7.996E+24
  52.500   4.979E+25   8.002E+24
  52.600   4.972E+25   8.008E+24
  52.700   4.966E+25   8.015E+24
  52.800   4.960E+25   8.023E+24
  52.900   4.954E+25   8.031E+24
  53.000   4.947E+25   8.039E+24
  53.100   4.941E+25   8.048E+24
  53.200   4.935E+25   8.057E+24
  53.300   4.929E+25   8.067E+24
  53.400   4.923E+25   8.078E+24
  53.500   4.917E+25   8.089E+24
  53.600   4.911E+25   8.100E+24
  53.700   4.905E+25   8.112E+24
  53.800   4.899E+25   8.124E+24
  53.900   4.894E+25   8.137E+24
  54.000   4.888E+25   8.150E+24
  54.100   4.882E+25   8.164E+24
  54.200   4.877E+25   8.179E+24
  54.300   4.871E+25   8.194E+24
  54.400   4.865E+25   8.209E+24
  54.500   4.860E+25   8.225E+24
  54.600   4.854E+25   8.241E+24
  54.700   4.849E+25   8.258E+24
  54.800   4.843E+25   8.275E+24
  54.900   4.838E+25   8.293E+24
  55.000   4.833E+25   8.311E+24
  55.100   4.827E+25   8.330E+24
  55.200   4.822E+25   8.350E+24
  55.300   4.817E+25   8.369E+24
  55.400   4.812E+25   8.390E+24
  55.500   4.807E+25   8.410E+24
  55.600   4.802E+25   8.431E+24
  55.700   4.797E+25   8.453E+24
  55.800   4.792E+25   8.475E+24
  55.900   4.787E+25   8.498E+24
  56.000   4.782E+25   8.521E+24
  56.100   4.777E+25   8.545E+24
  56.200   4.773E+25   8.569E+24
  56.300   4.768E+25   8.593E+24
  56.400   4.763E+25   8.618E+24
  56.500   4.759E+25   8.643E+24
  56.600   4.754E+25   8.669E+24
  56.700   4.750E+25   8.696E+24
  56.800   4.745E+25   8.722E+24
  56.900   4.741E+25   8.750E+24
  57.000   4.737E+25   8.777E+24
  57.100   4.732E+25   8.805E+24
  57.200   4.728E+25   8.834E+24
  57.300   4.724E+25   8.863E+24
  57.400   4.720E+25   8.892E+24
  57.500   4.716E+25   8.922E+24
  57.600   4.711E+25   8.952E+24
  57.700   4.707E+25   8.983E+24
  57.800   4.704E+25   9.014E+24
  57.900   4.700E+25   9.045E+24
  58.000   4.696E+25   9.077E+24
  58.100   4.692E+25   9.110E+24
  58.200   4.688E+25   9.142E+24
  58.300   4.685E+25   9.175E+24
  58.400   4.681E+25   9.209E+24
  58.500   4.677E+25   9.243E+24
  58.600   4.674E+25   9.277E+24
  58.700   4.670E+25   9.311E+24
  58.800   4.667E+25   9.346E+24
  58.900   4.663E+25   9.382E+24
  59.000   4.660E+25   9.418E+24
  59.100   4.657E+25   9.454E+24
  59.200   4.653E+25   9.490E+24
  59.300   4.650E+25   9.527E+24
  59.400   4.647E+25   9.564E+24
  59.500   4.644E+25   9.602E+24
  59.600   4.641E+25   9.640E+24
  59.700   4.638E+25   9.678E+24
  59.800   4.635E+25   9.717E+24
  59.900   4.632E+25   9.755E+24
  60.000   4.629E+25   9.795E+24
  60.100   4.627E+25   9.834E+24
  60.200   4.624E+25   9.874E+24
  60.300   4.621E+25   9.914E+24
  60.400   4.618E+25   9.955E+24
  60.500   4.616E+25   9.996E+24
  60.600   4.613E+25   1.004E+25
  60.700   4.611E+25   1.008E+25
