Column 1: Rest Wavelength (microns)
Column 2: Luminosity (W/Hz)
Column 3: DLnu (W/Hz)

   2.000   1.161E+24   1.495E+23
   2.100   1.268E+24   1.864E+23
   2.102   1.269E+24   1.871E+23
   2.200   1.403E+24   2.398E+23
   2.300   1.549E+24   2.984E+23
   2.400   1.695E+24   3.420E+23
   2.402   1.698E+24   3.423E+23
   2.500   1.843E+24   3.363E+23
   2.600   1.990E+24   3.146E+23
   2.669   2.090E+24   3.047E+23
   2.700   2.132E+24   3.038E+23
   2.800   2.266E+24   3.106E+23
   2.900   2.404E+24   3.221E+23
   2.968   2.533E+24   3.442E+23
   3.000   2.607E+24   3.616E+23
   3.049   2.694E+24   3.859E+23
   3.100   2.713E+24   3.884E+23
   3.148   2.703E+24   3.588E+23
   3.200   2.724E+24   3.023E+23
   3.252   2.776E+24   2.693E+23
   3.300   2.842E+24   2.923E+23
   3.350   2.946E+24   3.357E+23
   3.400   3.098E+24   3.546E+23
   3.451   3.264E+24   3.522E+23
   3.500   3.396E+24   3.461E+23
   3.552   3.502E+24   3.353E+23
   3.600   3.577E+24   3.213E+23
   3.649   3.632E+24   3.180E+23
   3.700   3.682E+24   3.397E+23
   3.744   3.755E+24   3.690E+23
   3.800   3.900E+24   3.989E+23
   3.844   3.984E+24   4.099E+23
   3.900   3.973E+24   4.084E+23
   3.949   3.908E+24   4.046E+23
   4.000   3.890E+24   4.088E+23
   4.049   4.011E+24   4.181E+23
   4.150   4.575E+24   4.200E+23
   4.254   4.710E+24   3.722E+23
   4.353   4.768E+24   3.539E+23
   4.454   4.509E+24   3.215E+23
   4.550   4.772E+24   2.442E+23
   4.652   5.024E+24   3.334E+23
   4.748   5.143E+24   3.730E+23
   4.847   5.237E+24   3.238E+23
   4.949   5.550E+24   3.006E+23
   5.049   5.756E+24   2.588E+23
   5.150   6.180E+24   2.757E+23
   5.252   6.503E+24   3.583E+23
   5.348   6.407E+24   3.327E+23
   5.453   6.460E+24   3.685E+23
   5.552   6.606E+24   4.300E+23
   5.653   6.763E+24   3.963E+23
   5.751   6.744E+24   3.734E+23
   5.850   7.107E+24   3.609E+23
   5.947   7.293E+24   4.992E+23
   6.049   7.602E+24   5.658E+23
   6.150   8.226E+24   6.597E+23
   6.249   8.500E+24   5.144E+23
   6.348   8.234E+24   4.991E+23
   6.452   8.042E+24   5.874E+23
   6.548   8.141E+24   4.591E+23
   6.647   8.732E+24   4.109E+23
   6.749   9.074E+24   5.051E+23
   6.850   9.075E+24   5.231E+23
   6.952   9.462E+24   5.436E+23
   7.050   9.966E+24   5.213E+23
   7.152   1.057E+25   4.667E+23
   7.249   1.094E+25   4.383E+23
   7.352   1.121E+25   4.552E+23
   7.451   1.223E+25   6.609E+23
   7.549   1.352E+25   6.830E+23
   7.651   1.443E+25   7.040E+23
   7.746   1.423E+25   5.919E+23
   7.848   1.325E+25   5.682E+23
   7.949   1.254E+25   6.513E+23
   8.051   1.239E+25   6.645E+23
   8.152   1.196E+25   6.085E+23
   8.251   1.196E+25   5.987E+23
   8.354   1.183E+25   4.835E+23
   8.446   1.142E+25   4.555E+23
   8.552   1.119E+25   5.619E+23
   8.649   1.089E+25   6.726E+23
   8.748   9.840E+24   7.933E+23
   8.852   8.687E+24   1.330E+24
   8.949   8.757E+24   1.411E+24
   9.052   8.052E+24   1.483E+24
   9.147   8.269E+24   1.412E+24
   9.247   8.490E+24   1.360E+24
   9.350   7.945E+24   1.378E+24
   9.449   7.373E+24   1.375E+24
   9.552   7.628E+24   1.447E+24
   9.646   8.128E+24   1.346E+24
   9.750   7.932E+24   1.600E+24
   9.848   8.229E+24   1.807E+24
   9.947   9.260E+24   2.016E+24
  10.052   9.107E+24   2.176E+24
  10.150   7.487E+24   2.207E+24
  10.253   6.786E+24   1.821E+24
  10.353   8.597E+24   1.604E+24
  10.453   9.422E+24   1.763E+24
  10.547   1.020E+25   2.284E+24
  10.649   8.992E+24   1.917E+24
  10.751   9.656E+24   1.730E+24
  10.852   1.032E+25   1.894E+24
  10.952   1.010E+25   2.020E+24
  11.050   1.151E+25   1.994E+24
  11.153   1.245E+25   1.474E+24
  11.247   1.248E+25   1.500E+24
  11.348   1.259E+25   1.598E+24
  11.449   1.204E+25   1.620E+24
  11.545   1.172E+25   1.641E+24
  11.653   1.292E+25   1.617E+24
  11.747   1.406E+25   1.558E+24
  11.852   1.520E+25   1.851E+24
  11.948   1.527E+25   1.502E+24
  12.051   1.558E+25   1.110E+24
  12.152   1.617E+25   1.121E+24
  12.252   1.737E+25   1.135E+24
  12.348   1.795E+25   1.530E+24
  12.446   1.799E+25   1.587E+24
  12.547   1.972E+25   2.212E+24
  12.649   2.172E+25   3.921E+24
  12.751   2.155E+25   3.541E+24
  12.852   1.933E+25   3.101E+24
  12.949   1.644E+25   2.606E+24
  13.055   1.793E+25   2.569E+24
  13.148   1.855E+25   2.723E+24
  13.243   1.926E+25   4.035E+24
  13.344   1.916E+25   4.176E+24
  13.449   1.900E+25   2.017E+24
  13.553   1.866E+25   1.725E+24
  13.649   1.906E+25   1.661E+24
  13.751   1.941E+25   1.913E+24
  13.845   1.908E+25   3.043E+24
  13.953   1.936E+25   2.483E+24
  14.051   2.091E+25   3.353E+24
  14.144   2.211E+25   3.561E+24
  14.251   2.182E+25   2.628E+24
  14.356   2.043E+25   2.119E+24
  14.439   1.972E+25   2.358E+24
  14.549   1.938E+25   2.856E+24
  14.643   2.088E+25   3.297E+24
  14.748   1.974E+25   5.763E+24
  14.855   1.644E+25   5.758E+24
  15.151   1.777E+25   3.560E+24
  15.247   1.741E+25   3.675E+24
  15.351   1.725E+25   5.532E+24
  15.445   1.827E+25   6.431E+24
  15.545   1.768E+25   6.533E+24
  15.647   1.485E+25   5.290E+24
  15.753   1.563E+25   5.278E+24
  15.850   1.798E+25   5.045E+24
  15.900   1.826E+25   3.301E+24
  16.000   1.831E+25   1.686E+24
  16.100   1.861E+25   1.928E+24
  16.200   1.892E+25   2.253E+24
  16.300   1.922E+25   2.577E+24
  16.400   1.947E+25   2.832E+24
  16.500   1.986E+25   3.231E+24
  16.600   2.018E+25   3.557E+24
  16.700   2.050E+25   3.883E+24
  16.800   2.083E+25   4.208E+24
  16.900   2.116E+25   4.534E+24
  17.000   2.149E+25   4.860E+24
  17.100   2.183E+25   5.186E+24
  17.200   2.217E+25   5.512E+24
  17.300   2.251E+25   5.838E+24
  17.400   2.286E+25   6.164E+24
  17.500   2.321E+25   6.489E+24
  17.600   2.356E+25   6.815E+24
  17.700   2.392E+25   7.141E+24
  17.800   2.428E+25   7.467E+24
  17.900   2.464E+25   7.793E+24
  18.000   2.501E+25   8.119E+24
  18.100   2.538E+25   8.445E+24
  18.200   2.575E+25   8.771E+24
  18.300   2.613E+25   9.096E+24
  18.400   2.651E+25   9.422E+24
  18.500   2.689E+25   9.748E+24
  18.600   2.728E+25   1.007E+25
  18.700   2.767E+25   1.040E+25
  18.800   2.806E+25   1.073E+25
  18.900   2.846E+25   1.105E+25
  19.000   2.886E+25   1.138E+25
  19.100   2.926E+25   1.170E+25
  19.200   2.967E+25   1.203E+25
  19.300   3.008E+25   1.236E+25
  19.400   3.050E+25   1.268E+25
  19.500   3.091E+25   1.301E+25
  19.600   3.134E+25   1.333E+25
  19.700   3.176E+25   1.366E+25
  19.800   3.219E+25   1.398E+25
  19.900   3.262E+25   1.431E+25
  20.000   3.306E+25   1.464E+25
  20.100   3.350E+25   1.496E+25
  20.200   3.394E+25   1.529E+25
  20.300   3.439E+25   1.561E+25
  20.400   3.484E+25   1.594E+25
  20.500   3.530E+25   1.627E+25
  20.600   3.575E+25   1.659E+25
  20.700   3.622E+25   1.692E+25
  20.800   3.668E+25   1.724E+25
  20.900   3.715E+25   1.757E+25
  21.000   3.762E+25   1.789E+25
  21.100   3.810E+25   1.822E+25
  21.200   3.858E+25   1.855E+25
  21.300   3.906E+25   1.887E+25
  21.400   3.955E+25   1.920E+25
  21.500   4.004E+25   1.952E+25
  21.600   4.054E+25   1.985E+25
  21.700   4.104E+25   2.018E+25
  21.800   4.154E+25   2.050E+25
  21.900   4.205E+25   2.083E+25
  22.100   4.313E+25   2.132E+25
  22.200   4.370E+25   2.149E+25
  22.300   4.426E+25   2.165E+25
  22.400   4.483E+25   2.181E+25
  22.500   4.539E+25   2.197E+25
  22.600   4.596E+25   2.213E+25
  22.700   4.652E+25   2.228E+25
  22.800   4.708E+25   2.243E+25
  22.900   4.763E+25   2.258E+25
  23.000   4.819E+25   2.273E+25
  23.100   4.874E+25   2.287E+25
  23.200   4.929E+25   2.301E+25
  23.300   4.984E+25   2.315E+25
  23.400   5.039E+25   2.329E+25
  23.500   5.094E+25   2.342E+25
  23.600   5.148E+25   2.355E+25
  23.700   5.202E+25   2.368E+25
  23.800   5.256E+25   2.381E+25
  23.900   5.309E+25   2.393E+25
  24.000   5.363E+25   2.405E+25
  24.100   5.416E+25   2.417E+25
  24.200   5.468E+25   2.429E+25
  24.300   5.521E+25   2.440E+25
  24.400   5.573E+25   2.451E+25
  24.500   5.625E+25   2.462E+25
  24.600   5.677E+25   2.473E+25
  24.700   5.728E+25   2.484E+25
  24.800   5.779E+25   2.494E+25
  24.900   5.830E+25   2.504E+25
  25.000   5.881E+25   2.514E+25
  25.100   5.931E+25   2.524E+25
  25.200   5.981E+25   2.533E+25
  25.300   6.031E+25   2.543E+25
  25.400   6.080E+25   2.552E+25
  25.500   6.129E+25   2.561E+25
  25.600   6.178E+25   2.569E+25
  25.700   6.226E+25   2.578E+25
  25.800   6.274E+25   2.586E+25
  25.900   6.322E+25   2.594E+25
  26.000   6.370E+25   2.602E+25
  26.100   6.417E+25   2.610E+25
  26.200   6.464E+25   2.617E+25
  26.300   6.511E+25   2.625E+25
  26.400   6.557E+25   2.632E+25
  26.500   6.603E+25   2.639E+25
  26.600   6.649E+25   2.646E+25
  26.700   6.695E+25   2.653E+25
  26.800   6.740E+25   2.659E+25
  26.900   6.785E+25   2.666E+25
  27.000   6.829E+25   2.672E+25
  27.100   6.874E+25   2.678E+25
  27.200   6.918E+25   2.684E+25
  27.300   6.961E+25   2.690E+25
  27.400   7.005E+25   2.696E+25
  27.500   7.048E+25   2.702E+25
  27.600   7.091E+25   2.707E+25
  27.700   7.133E+25   2.713E+25
  27.800   7.176E+25   2.718E+25
  27.900   7.218E+25   2.723E+25
  28.000   7.260E+25   2.728E+25
  28.100   7.301E+25   2.733E+25
  28.200   7.342E+25   2.738E+25
  28.300   7.383E+25   2.743E+25
  28.400   7.424E+25   2.748E+25
  28.500   7.464E+25   2.752E+25
  28.600   7.505E+25   2.757E+25
  28.700   7.544E+25   2.761E+25
  28.800   7.584E+25   2.766E+25
  28.900   7.624E+25   2.770E+25
  29.000   7.663E+25   2.774E+25
  29.100   7.702E+25   2.779E+25
  29.200   7.740E+25   2.783E+25
  29.300   7.779E+25   2.787E+25
  29.400   7.817E+25   2.791E+25
  29.500   7.855E+25   2.795E+25
  29.600   7.893E+25   2.799E+25
  29.700   7.931E+25   2.803E+25
  29.800   7.968E+25   2.807E+25
  29.900   8.005E+25   2.811E+25
  30.000   8.042E+25   2.815E+25
  30.100   8.079E+25   2.819E+25
  30.200   8.115E+25   2.823E+25
  30.300   8.152E+25   2.827E+25
  30.400   8.188E+25   2.831E+25
  30.500   8.224E+25   2.835E+25
  30.600   8.260E+25   2.839E+25
  30.700   8.295E+25   2.843E+25
  30.800   8.331E+25   2.847E+25
  30.900   8.366E+25   2.851E+25
  31.000   8.401E+25   2.856E+25
  31.100   8.436E+25   2.860E+25
  31.200   8.471E+25   2.864E+25
  31.300   8.506E+25   2.868E+25
  31.400   8.540E+25   2.873E+25
  31.500   8.575E+25   2.877E+25
  31.600   8.609E+25   2.881E+25
  31.700   8.643E+25   2.886E+25
  31.800   8.677E+25   2.890E+25
  31.900   8.711E+25   2.895E+25
  32.000   8.745E+25   2.900E+25
  32.100   8.778E+25   2.905E+25
  32.200   8.812E+25   2.910E+25
  32.300   8.845E+25   2.915E+25
  32.400   8.879E+25   2.920E+25
  32.500   8.912E+25   2.925E+25
  32.600   8.945E+25   2.930E+25
  32.700   8.978E+25   2.936E+25
  32.800   9.011E+25   2.941E+25
  32.900   9.044E+25   2.947E+25
  33.000   9.076E+25   2.952E+25
  33.100   9.109E+25   2.958E+25
  33.200   9.142E+25   2.964E+25
  33.300   9.174E+25   2.971E+25
  33.400   9.207E+25   2.977E+25
  33.500   9.239E+25   2.983E+25
  33.600   9.272E+25   2.990E+25
  33.700   9.304E+25   2.997E+25
  33.800   9.336E+25   3.003E+25
  33.900   9.368E+25   3.010E+25
  34.000   9.400E+25   3.018E+25
  34.100   9.432E+25   3.025E+25
  34.200   9.465E+25   3.032E+25
  34.300   9.497E+25   3.040E+25
  34.400   9.529E+25   3.048E+25
  34.500   9.561E+25   3.056E+25
  34.600   9.593E+25   3.064E+25
  34.700   9.624E+25   3.072E+25
  34.800   9.656E+25   3.081E+25
  34.900   9.688E+25   3.090E+25
  35.000   9.720E+25   3.099E+25
  35.100   9.752E+25   3.108E+25
  35.200   9.784E+25   3.117E+25
  35.300   9.816E+25   3.126E+25
  35.400   9.848E+25   3.136E+25
  35.500   9.880E+25   3.146E+25
  35.600   9.911E+25   3.156E+25
  35.700   9.943E+25   3.166E+25
  35.800   9.975E+25   3.177E+25
  35.900   1.001E+26   3.187E+25
  36.000   1.004E+26   3.198E+25
  36.100   1.007E+26   3.209E+25
  36.200   1.010E+26   3.220E+25
  36.300   1.013E+26   3.232E+25
  36.400   1.017E+26   3.243E+25
  36.500   1.020E+26   3.255E+25
  36.600   1.023E+26   3.267E+25
  36.700   1.026E+26   3.279E+25
  36.800   1.030E+26   3.292E+25
  36.900   1.033E+26   3.305E+25
  37.000   1.036E+26   3.317E+25
  37.100   1.039E+26   3.330E+25
  37.200   1.042E+26   3.344E+25
  37.300   1.046E+26   3.357E+25
  37.400   1.049E+26   3.371E+25
  37.500   1.052E+26   3.385E+25
  37.600   1.055E+26   3.399E+25
  37.700   1.059E+26   3.413E+25
  37.800   1.062E+26   3.428E+25
  37.900   1.065E+26   3.442E+25
  38.000   1.068E+26   3.457E+25
  38.100   1.072E+26   3.472E+25
  38.200   1.075E+26   3.488E+25
  38.300   1.078E+26   3.503E+25
  38.400   1.082E+26   3.519E+25
  38.500   1.085E+26   3.535E+25
  38.600   1.088E+26   3.551E+25
  38.700   1.091E+26   3.567E+25
  38.800   1.095E+26   3.584E+25
  38.900   1.098E+26   3.601E+25
  39.000   1.101E+26   3.617E+25
  39.100   1.105E+26   3.634E+25
  39.200   1.108E+26   3.652E+25
  39.300   1.111E+26   3.669E+25
  39.400   1.115E+26   3.687E+25
  39.500   1.118E+26   3.705E+25
  39.600   1.122E+26   3.723E+25
  39.700   1.125E+26   3.741E+25
  39.800   1.128E+26   3.759E+25
  39.900   1.132E+26   3.778E+25
  40.000   1.135E+26   3.796E+25
  40.100   1.139E+26   3.815E+25
  40.200   1.142E+26   3.834E+25
  40.300   1.145E+26   3.853E+25
  40.400   1.149E+26   3.873E+25
  40.500   1.152E+26   3.892E+25
  40.600   1.156E+26   3.912E+25
  40.700   1.159E+26   3.932E+25
  40.800   1.163E+26   3.952E+25
  40.900   1.166E+26   3.972E+25
  41.000   1.170E+26   3.992E+25
  41.100   1.173E+26   4.012E+25
  41.200   1.177E+26   4.033E+25
  41.300   1.180E+26   4.054E+25
  41.400   1.184E+26   4.075E+25
  41.500   1.187E+26   4.095E+25
  41.600   1.191E+26   4.117E+25
  41.700   1.194E+26   4.138E+25
  41.800   1.198E+26   4.159E+25
  41.900   1.201E+26   4.181E+25
  42.000   1.205E+26   4.202E+25
  42.100   1.208E+26   4.224E+25
  42.200   1.212E+26   4.246E+25
  42.300   1.215E+26   4.268E+25
  42.400   1.219E+26   4.290E+25
  42.500   1.223E+26   4.312E+25
  42.600   1.226E+26   4.334E+25
  42.700   1.230E+26   4.357E+25
  42.800   1.233E+26   4.379E+25
  42.900   1.237E+26   4.402E+25
  43.000   1.241E+26   4.424E+25
  43.100   1.244E+26   4.447E+25
  43.200   1.248E+26   4.470E+25
  43.300   1.251E+26   4.493E+25
  43.400   1.255E+26   4.516E+25
  43.500   1.259E+26   4.539E+25
  43.600   1.262E+26   4.562E+25
  43.700   1.266E+26   4.586E+25
  43.800   1.270E+26   4.609E+25
  43.900   1.273E+26   4.632E+25
  44.000   1.277E+26   4.656E+25
  44.100   1.281E+26   4.679E+25
  44.200   1.284E+26   4.703E+25
  44.300   1.288E+26   4.726E+25
  44.400   1.292E+26   4.750E+25
  44.500   1.295E+26   4.774E+25
  44.600   1.299E+26   4.798E+25
  44.700   1.303E+26   4.822E+25
  44.800   1.307E+26   4.846E+25
  44.900   1.310E+26   4.869E+25
  45.000   1.314E+26   4.893E+25
  45.100   1.318E+26   4.917E+25
  45.200   1.322E+26   4.942E+25
  45.300   1.325E+26   4.966E+25
  45.400   1.329E+26   4.990E+25
  45.500   1.333E+26   5.014E+25
  45.600   1.337E+26   5.038E+25
  45.700   1.340E+26   5.062E+25
  45.800   1.344E+26   5.087E+25
  45.900   1.348E+26   5.111E+25
  46.000   1.352E+26   5.135E+25
  46.100   1.355E+26   5.159E+25
  46.200   1.359E+26   5.184E+25
  46.300   1.363E+26   5.208E+25
  46.400   1.367E+26   5.232E+25
  46.500   1.370E+26   5.257E+25
  46.600   1.374E+26   5.281E+25
  46.700   1.378E+26   5.305E+25
  46.800   1.382E+26   5.330E+25
  46.900   1.386E+26   5.354E+25
  47.000   1.389E+26   5.378E+25
  47.100   1.393E+26   5.402E+25
  47.200   1.397E+26   5.427E+25
  47.300   1.401E+26   5.451E+25
  47.400   1.405E+26   5.475E+25
  47.500   1.408E+26   5.500E+25
  47.600   1.412E+26   5.524E+25
  47.700   1.416E+26   5.548E+25
  47.800   1.420E+26   5.572E+25
  47.900   1.424E+26   5.596E+25
  48.000   1.427E+26   5.620E+25
  48.100   1.431E+26   5.645E+25
  48.200   1.435E+26   5.669E+25
  48.300   1.439E+26   5.693E+25
  48.400   1.443E+26   5.717E+25
  48.500   1.446E+26   5.741E+25
  48.600   1.450E+26   5.765E+25
  48.700   1.454E+26   5.789E+25
  48.800   1.458E+26   5.812E+25
  48.900   1.462E+26   5.836E+25
  49.000   1.466E+26   5.860E+25
  49.100   1.469E+26   5.884E+25
  49.200   1.473E+26   5.907E+25
  49.300   1.477E+26   5.931E+25
  49.400   1.481E+26   5.955E+25
  49.500   1.485E+26   5.978E+25
  49.600   1.488E+26   6.002E+25
  49.700   1.492E+26   6.025E+25
  49.800   1.496E+26   6.048E+25
  49.900   1.500E+26   6.072E+25
  50.000   1.503E+26   6.095E+25
  50.100   1.507E+26   6.118E+25
  50.200   1.511E+26   6.141E+25
  50.300   1.515E+26   6.164E+25
  50.400   1.519E+26   6.187E+25
  50.500   1.522E+26   6.210E+25
  50.600   1.526E+26   6.233E+25
  50.700   1.530E+26   6.256E+25
  50.800   1.534E+26   6.278E+25
  50.900   1.537E+26   6.301E+25
  51.000   1.541E+26   6.324E+25
  51.100   1.545E+26   6.346E+25
  51.200   1.549E+26   6.369E+25
  51.300   1.552E+26   6.391E+25
  51.400   1.556E+26   6.413E+25
  51.500   1.560E+26   6.435E+25
  51.600   1.564E+26   6.457E+25
  51.700   1.567E+26   6.479E+25
  51.800   1.571E+26   6.501E+25
  51.900   1.575E+26   6.523E+25
  52.000   1.579E+26   6.545E+25
  52.100   1.582E+26   6.567E+25
  52.200   1.586E+26   6.588E+25
  52.300   1.590E+26   6.610E+25
  52.400   1.593E+26   6.631E+25
  52.500   1.597E+26   6.653E+25
  52.600   1.601E+26   6.674E+25
  52.700   1.604E+26   6.695E+25
  52.800   1.608E+26   6.716E+25
  52.900   1.612E+26   6.737E+25
  53.000   1.615E+26   6.758E+25
  53.100   1.619E+26   6.779E+25
  53.200   1.623E+26   6.799E+25
  53.300   1.626E+26   6.820E+25
  53.400   1.630E+26   6.840E+25
  53.500   1.633E+26   6.861E+25
  53.600   1.637E+26   6.881E+25
  53.700   1.641E+26   6.901E+25
  53.800   1.644E+26   6.921E+25
  53.900   1.648E+26   6.941E+25
  54.000   1.651E+26   6.961E+25
  54.100   1.655E+26   6.981E+25
  54.200   1.659E+26   7.000E+25
  54.300   1.662E+26   7.020E+25
  54.400   1.666E+26   7.039E+25
  54.500   1.669E+26   7.059E+25
  54.600   1.673E+26   7.078E+25
  54.700   1.676E+26   7.097E+25
  54.800   1.680E+26   7.116E+25
  54.900   1.683E+26   7.135E+25
  55.000   1.687E+26   7.154E+25
  55.100   1.690E+26   7.173E+25
  55.200   1.694E+26   7.191E+25
  55.300   1.697E+26   7.210E+25
  55.400   1.701E+26   7.228E+25
  55.500   1.704E+26   7.246E+25
  55.600   1.708E+26   7.264E+25
  55.700   1.711E+26   7.282E+25
  55.800   1.714E+26   7.300E+25
  55.900   1.718E+26   7.318E+25
  56.000   1.721E+26   7.336E+25
  56.100   1.725E+26   7.353E+25
  56.200   1.728E+26   7.371E+25
  56.300   1.731E+26   7.388E+25
  56.400   1.735E+26   7.405E+25
  56.500   1.738E+26   7.423E+25
  56.600   1.741E+26   7.440E+25
  56.700   1.745E+26   7.456E+25
  56.800   1.748E+26   7.473E+25
  56.900   1.751E+26   7.490E+25
  57.000   1.755E+26   7.506E+25
  57.100   1.758E+26   7.523E+25
  57.200   1.761E+26   7.539E+25
  57.300   1.764E+26   7.555E+25
  57.400   1.768E+26   7.571E+25
  57.500   1.771E+26   7.587E+25
  57.600   1.774E+26   7.603E+25
  57.700   1.777E+26   7.619E+25
  57.800   1.780E+26   7.634E+25
  57.900   1.784E+26   7.650E+25
  58.000   1.787E+26   7.665E+25
  58.100   1.790E+26   7.681E+25
  58.200   1.793E+26   7.696E+25
  58.300   1.796E+26   7.711E+25
  58.400   1.799E+26   7.726E+25
  58.500   1.802E+26   7.740E+25
  58.600   1.806E+26   7.755E+25
  58.700   1.809E+26   7.770E+25
  58.800   1.812E+26   7.784E+25
  58.900   1.815E+26   7.798E+25
  59.000   1.818E+26   7.812E+25
  59.100   1.821E+26   7.826E+25
  59.200   1.824E+26   7.840E+25
  59.300   1.827E+26   7.854E+25
  59.400   1.830E+26   7.868E+25
  59.500   1.833E+26   7.881E+25
  59.600   1.836E+26   7.895E+25
  59.700   1.839E+26   7.908E+25
  59.800   1.842E+26   7.921E+25
  59.900   1.845E+26   7.934E+25
  60.000   1.848E+26   7.947E+25
  60.100   1.851E+26   7.960E+25
  60.200   1.853E+26   7.973E+25
  60.300   1.856E+26   7.986E+25
  60.400   1.859E+26   7.998E+25
  60.500   1.862E+26   8.010E+25
  60.600   1.865E+26   8.023E+25
  60.700   1.868E+26   8.035E+25
  60.800   1.870E+26   8.047E+25
  60.900   1.873E+26   8.059E+25
  61.000   1.876E+26   8.071E+25
